# WDBII Rivers Master File: Level = 0
#
> Id = 0 N = 15401 G = 0 L = 0 E = 180 S = 0 R = 286.991000/307.294000/-4.479720/-0.240556 A = 0
306.106000	 -2.017780
306.102000	 -2.020560
306.098000	 -2.022780
306.094000	 -2.025830
306.089000	 -2.028060
306.085000	 -2.030830
306.081000	 -2.033890
306.077000	 -2.036670
306.073000	 -2.039720
306.069000	 -2.042500
306.065000	 -2.045560
306.061000	 -2.048890
306.058000	 -2.051940
306.054000	 -2.055560
306.050000	 -2.058330
306.047000	 -2.061940
306.043000	 -2.065560
306.039000	 -2.069170
306.036000	 -2.072500
306.032000	 -2.075560
306.029000	 -2.079720
306.026000	 -2.083330
306.022000	 -2.086940
306.020000	 -2.091110
306.017000	 -2.094720
306.014000	 -2.098890
306.011000	 -2.102500
306.008000	 -2.106670
306.006000	 -2.110830
306.003000	 -2.115000
306.001000	 -2.119440
305.997000	 -2.123610
305.995000	 -2.127780
305.992000	 -2.131940
305.990000	 -2.136940
305.988000	 -2.141110
305.985000	 -2.145280
305.983000	 -2.150280
305.981000	 -2.154440
305.979000	 -2.159170
305.977000	 -2.164170
305.975000	 -2.168890
305.973000	 -2.173890
305.972000	 -2.179440
305.970000	 -2.184440
305.969000	 -2.189720
305.967000	 -2.194720
305.965000	 -2.199720
305.964000	 -2.205280
305.963000	 -2.210560
305.962000	 -2.216110
305.961000	 -2.222500
305.961000	 -2.228610
305.960000	 -2.234170
305.959000	 -2.239720
305.957000	 -2.244440
305.956000	 -2.250000
305.954000	 -2.255000
305.952000	 -2.260560
305.951000	 -2.266110
305.949000	 -2.271670
305.949000	 -2.277780
305.949000	 -2.283890
305.948000	 -2.290280
305.949000	 -2.296940
305.950000	 -2.302500
305.950000	 -2.309170
305.951000	 -2.315560
305.951000	 -2.321670
305.950000	 -2.327780
305.950000	 -2.334170
305.949000	 -2.339440
305.947000	 -2.345000
305.946000	 -2.350560
305.944000	 -2.355560
305.942000	 -2.359720
305.938000	 -2.362500
305.934000	 -2.366110
305.931000	 -2.369170
305.926000	 -2.371940
305.923000	 -2.375000
305.918000	 -2.377220
305.914000	 -2.380000
305.909000	 -2.382220
305.904000	 -2.384440
305.896000	 -2.384720
305.891000	 -2.386390
305.884000	 -2.387220
305.878000	 -2.388330
305.873000	 -2.390000
305.867000	 -2.390830
305.861000	 -2.391670
305.856000	 -2.393890
305.851000	 -2.395560
305.845000	 -2.397220
305.840000	 -2.398610
305.834000	 -2.400280
305.830000	 -2.402500
305.824000	 -2.403610
305.818000	 -2.405000
305.812000	 -2.406110
305.806000	 -2.407500
305.800000	 -2.408610
305.793000	 -2.408890
305.787000	 -2.408330
305.781000	 -2.409170
305.774000	 -2.409440
305.768000	 -2.410560
305.762000	 -2.410000
305.755000	 -2.410280
305.748000	 -2.410560
305.743000	 -2.412220
305.737000	 -2.413610
305.731000	 -2.414720
305.725000	 -2.415560
305.719000	 -2.416390
305.713000	 -2.417500
305.707000	 -2.418330
305.701000	 -2.419170
305.694000	 -2.420280
305.689000	 -2.421670
305.683000	 -2.422780
305.677000	 -2.424170
305.672000	 -2.425830
305.666000	 -2.427500
305.661000	 -2.428890
305.655000	 -2.430000
305.649000	 -2.430830
305.643000	 -2.432500
305.636000	 -2.432780
305.630000	 -2.433610
305.624000	 -2.434440
305.619000	 -2.436110
305.613000	 -2.437780
305.608000	 -2.440000
305.603000	 -2.441390
305.598000	 -2.443890
305.593000	 -2.445280
305.588000	 -2.447500
305.583000	 -2.449720
305.579000	 -2.451940
305.573000	 -2.453610
305.569000	 -2.455830
305.564000	 -2.458060
305.559000	 -2.460280
305.553000	 -2.461940
305.548000	 -2.462780
305.542000	 -2.464440
305.536000	 -2.465280
305.530000	 -2.466390
305.523000	 -2.466670
305.517000	 -2.467500
305.511000	 -2.468330
305.504000	 -2.469440
305.499000	 -2.470830
305.493000	 -2.471940
305.487000	 -2.472780
305.480000	 -2.473060
305.473000	 -2.473330
305.467000	 -2.472780
305.461000	 -2.472220
305.454000	 -2.471940
305.448000	 -2.471390
305.442000	 -2.471110
305.436000	 -2.469720
305.431000	 -2.468610
305.424000	 -2.468330
305.418000	 -2.467780
305.412000	 -2.467220
305.406000	 -2.466940
305.399000	 -2.467220
305.392000	 -2.467500
305.386000	 -2.467500
305.379000	 -2.468610
305.373000	 -2.468060
305.368000	 -2.466110
305.363000	 -2.465000
305.359000	 -2.463060
305.354000	 -2.461110
305.350000	 -2.458610
305.345000	 -2.456940
305.341000	 -2.454170
305.337000	 -2.451670
305.332000	 -2.449170
305.328000	 -2.446390
305.324000	 -2.443890
305.320000	 -2.441390
305.315000	 -2.439440
305.311000	 -2.436940
305.307000	 -2.434170
305.302000	 -2.432220
305.296000	 -2.431110
305.291000	 -2.429170
305.286000	 -2.428060
305.280000	 -2.426940
305.275000	 -2.425830
305.269000	 -2.424720
305.263000	 -2.423610
305.257000	 -2.423060
305.252000	 -2.421940
305.246000	 -2.421390
305.239000	 -2.421670
305.232000	 -2.421940
305.225000	 -2.422220
305.218000	 -2.422500
305.213000	 -2.421110
305.207000	 -2.420000
305.202000	 -2.418060
305.197000	 -2.416390
305.192000	 -2.414440
305.187000	 -2.413330
305.181000	 -2.412780
305.174000	 -2.412220
305.168000	 -2.413330
305.163000	 -2.414720
305.158000	 -2.416390
305.152000	 -2.418060
305.147000	 -2.420280
305.141000	 -2.421940
305.135000	 -2.422780
305.129000	 -2.423610
305.123000	 -2.424440
305.117000	 -2.426110
305.113000	 -2.428330
305.108000	 -2.430560
305.104000	 -2.433610
305.100000	 -2.436390
305.095000	 -2.438610
305.092000	 -2.442220
305.087000	 -2.444440
305.083000	 -2.447220
305.079000	 -2.450280
305.074000	 -2.452500
305.069000	 -2.454720
305.065000	 -2.456940
305.060000	 -2.459170
305.056000	 -2.461390
305.051000	 -2.463610
305.045000	 -2.465280
305.041000	 -2.467500
305.036000	 -2.469720
305.031000	 -2.471940
305.026000	 -2.474170
305.022000	 -2.476940
305.020000	 -2.481110
305.017000	 -2.485280
305.015000	 -2.490280
305.016000	 -2.496390
305.019000	 -2.500560
305.021000	 -2.505280
305.023000	 -2.510000
305.025000	 -2.515280
305.023000	 -2.520280
305.021000	 -2.525000
305.019000	 -2.530000
305.017000	 -2.534170
305.015000	 -2.539170
305.013000	 -2.543890
305.011000	 -2.548890
305.011000	 -2.555000
305.010000	 -2.561110
305.011000	 -2.567220
305.012000	 -2.573330
305.013000	 -2.579720
305.014000	 -2.585830
305.014000	 -2.592780
305.013000	 -2.598060
305.012000	 -2.603610
305.010000	 -2.608610
305.008000	 -2.613610
305.007000	 -2.619720
305.006000	 -2.625280
305.005000	 -2.630830
305.003000	 -2.635560
305.001000	 -2.640560
304.999000	 -2.646110
304.998000	 -2.650830
304.996000	 -2.655830
304.994000	 -2.660560
304.991000	 -2.665000
304.989000	 -2.669720
304.988000	 -2.674720
304.986000	 -2.679440
304.985000	 -2.685000
304.983000	 -2.690000
304.981000	 -2.695560
304.979000	 -2.700280
304.979000	 -2.705830
304.977000	 -2.710830
304.975000	 -2.716390
304.973000	 -2.721110
304.972000	 -2.726110
304.970000	 -2.730830
304.968000	 -2.735830
304.966000	 -2.740560
304.963000	 -2.745000
304.961000	 -2.749720
304.959000	 -2.753890
304.957000	 -2.758890
304.955000	 -2.763610
304.953000	 -2.768610
304.952000	 -2.774170
304.952000	 -2.781110
304.953000	 -2.787220
304.956000	 -2.791110
304.959000	 -2.795280
304.961000	 -2.800000
304.963000	 -2.804720
304.966000	 -2.809440
304.967000	 -2.815560
304.967000	 -2.821110
304.966000	 -2.826670
304.964000	 -2.831390
304.962000	 -2.836390
304.959000	 -2.840560
304.956000	 -2.844170
304.952000	 -2.847780
304.948000	 -2.850560
304.945000	 -2.854720
304.942000	 -2.858330
304.939000	 -2.862500
304.937000	 -2.866670
304.934000	 -2.870280
304.931000	 -2.874440
304.928000	 -2.878890
304.926000	 -2.883610
304.924000	 -2.887780
304.922000	 -2.892780
304.920000	 -2.897500
304.920000	 -2.903890
304.918000	 -2.909440
304.918000	 -2.915560
304.917000	 -2.921110
304.915000	 -2.925830
304.912000	 -2.930280
304.910000	 -2.934440
304.907000	 -2.938610
304.904000	 -2.942780
304.902000	 -2.946940
304.901000	 -2.952500
304.900000	 -2.958060
304.898000	 -2.963610
304.898000	 -2.970000
304.897000	 -2.975560
304.896000	 -2.980830
304.894000	 -2.986390
304.893000	 -2.991940
304.891000	 -2.996940
304.889000	 -3.001940
304.887000	 -3.006110
304.885000	 -3.010830
304.882000	 -3.015000
304.880000	 -3.020000
304.879000	 -3.025000
304.877000	 -3.029720
304.875000	 -3.034720
304.874000	 -3.040280
304.873000	 -3.045560
304.871000	 -3.051390
304.871000	 -3.057500
304.870000	 -3.063610
304.870000	 -3.069720
304.869000	 -3.076110
304.869000	 -3.082220
304.868000	 -3.087780
304.868000	 -3.093890
304.867000	 -3.100280
304.866000	 -3.106390
304.866000	 -3.112500
304.865000	 -3.118060
304.863000	 -3.123060
304.862000	 -3.128610
304.861000	 -3.134170
304.859000	 -3.139720
304.858000	 -3.144440
304.856000	 -3.150000
304.854000	 -3.155000
304.853000	 -3.159720
304.851000	 -3.164720
304.848000	 -3.168890
304.846000	 -3.173890
304.844000	 -3.178610
304.842000	 -3.183610
304.840000	 -3.187780
304.837000	 -3.191940
304.834000	 -3.195560
304.831000	 -3.199170
304.827000	 -3.202780
304.824000	 -3.206940
304.822000	 -3.211110
304.819000	 -3.215280
304.817000	 -3.219440
304.815000	 -3.224440
304.813000	 -3.229440
304.811000	 -3.235000
304.810000	 -3.240560
304.809000	 -3.246110
304.807000	 -3.250830
304.806000	 -3.256390
304.804000	 -3.261390
304.802000	 -3.266110
304.800000	 -3.271110
304.799000	 -3.276670
304.797000	 -3.281390
304.795000	 -3.286390
304.793000	 -3.290560
304.791000	 -3.295560
304.789000	 -3.300280
304.787000	 -3.305280
304.785000	 -3.310000
304.783000	 -3.315000
304.782000	 -3.320560
304.781000	 -3.326110
304.779000	 -3.330830
304.777000	 -3.336390
304.776000	 -3.341390
304.774000	 -3.346390
304.772000	 -3.351110
304.771000	 -3.356670
304.769000	 -3.361670
304.767000	 -3.366390
304.766000	 -3.371940
304.764000	 -3.376940
304.762000	 -3.381670
304.759000	 -3.386110
304.757000	 -3.390280
304.755000	 -3.395000
304.752000	 -3.400000
304.751000	 -3.405000
304.749000	 -3.409720
304.746000	 -3.413890
304.744000	 -3.418890
304.742000	 -3.423890
304.740000	 -3.428610
304.738000	 -3.432780
304.736000	 -3.437780
304.733000	 -3.441940
304.731000	 -3.446940
304.729000	 -3.451110
304.726000	 -3.455280
304.723000	 -3.459440
304.720000	 -3.463060
304.717000	 -3.467220
304.715000	 -3.471390
304.712000	 -3.475830
304.710000	 -3.480000
304.707000	 -3.484170
304.704000	 -3.488330
304.702000	 -3.493330
304.700000	 -3.497500
304.697000	 -3.501670
304.695000	 -3.506670
304.693000	 -3.510830
304.690000	 -3.515000
304.688000	 -3.519170
304.684000	 -3.522780
304.682000	 -3.526940
304.678000	 -3.530560
304.676000	 -3.534720
304.673000	 -3.538330
304.671000	 -3.543330
304.668000	 -3.547500
304.665000	 -3.551670
304.663000	 -3.555830
304.660000	 -3.560000
304.657000	 -3.563610
304.654000	 -3.567780
304.651000	 -3.571390
304.647000	 -3.575000
304.644000	 -3.577780
304.640000	 -3.581390
304.637000	 -3.585000
304.634000	 -3.588610
304.631000	 -3.592780
304.627000	 -3.595830
304.624000	 -3.599170
304.620000	 -3.602780
304.617000	 -3.606390
304.614000	 -3.610000
304.610000	 -3.613330
304.607000	 -3.616940
304.604000	 -3.621390
304.601000	 -3.622220
304.604000	 -3.617780
304.606000	 -3.613610
304.608000	 -3.608890
304.611000	 -3.604440
304.613000	 -3.599720
304.615000	 -3.595560
304.618000	 -3.591110
304.620000	 -3.586940
304.623000	 -3.582780
304.626000	 -3.578610
304.628000	 -3.574440
304.632000	 -3.570830
304.634000	 -3.566670
304.637000	 -3.562220
304.639000	 -3.558060
304.642000	 -3.553890
304.644000	 -3.548890
304.646000	 -3.544170
304.648000	 -3.539170
304.648000	 -3.533060
304.648000	 -3.526110
304.648000	 -3.519170
304.647000	 -3.512500
304.647000	 -3.505560
304.646000	 -3.499440
304.645000	 -3.493330
304.644000	 -3.486940
304.644000	 -3.480280
304.643000	 -3.474170
304.643000	 -3.467220
304.643000	 -3.460280
304.643000	 -3.454170
304.644000	 -3.448610
304.646000	 -3.443060
304.647000	 -3.438060
304.649000	 -3.433330
304.650000	 -3.428330
304.651000	 -3.422780
304.652000	 -3.417220
304.654000	 -3.411670
304.655000	 -3.406940
304.657000	 -3.401940
304.658000	 -3.396390
304.661000	 -3.392220
304.663000	 -3.387220
304.665000	 -3.382500
304.667000	 -3.377500
304.669000	 -3.373330
304.671000	 -3.368610
304.673000	 -3.363610
304.674000	 -3.357500
304.673000	 -3.350560
304.673000	 -3.343610
304.673000	 -3.336940
304.673000	 -3.330560
304.674000	 -3.324440
304.674000	 -3.318060
304.676000	 -3.313330
304.678000	 -3.308330
304.679000	 -3.302780
304.682000	 -3.298610
304.684000	 -3.294440
304.688000	 -3.290830
304.691000	 -3.287220
304.694000	 -3.283060
304.698000	 -3.280280
304.701000	 -3.276670
304.703000	 -3.273060
304.706000	 -3.269720
304.709000	 -3.266110
304.713000	 -3.262500
304.716000	 -3.258890
304.719000	 -3.255280
304.723000	 -3.251670
304.726000	 -3.248330
304.731000	 -3.243330
304.735000	 -3.239720
304.738000	 -3.236110
304.741000	 -3.231940
304.743000	 -3.227780
304.746000	 -3.223610
304.748000	 -3.218610
304.751000	 -3.215000
304.753000	 -3.210280
304.756000	 -3.205830
304.758000	 -3.201670
304.760000	 -3.196940
304.763000	 -3.192500
304.765000	 -3.187780
304.767000	 -3.183610
304.770000	 -3.179440
304.772000	 -3.175000
304.776000	 -3.171390
304.778000	 -3.167220
304.782000	 -3.163890
304.785000	 -3.160280
304.788000	 -3.156670
304.792000	 -3.153060
304.795000	 -3.149440
304.798000	 -3.145280
304.800000	 -3.141110
304.802000	 -3.136110
304.804000	 -3.131390
304.806000	 -3.126390
304.808000	 -3.121670
304.810000	 -3.117500
304.812000	 -3.112500
304.814000	 -3.106940
304.815000	 -3.101940
304.816000	 -3.095830
304.816000	 -3.089720
304.817000	 -3.083330
304.817000	 -3.077220
304.816000	 -3.071110
304.815000	 -3.065560
304.813000	 -3.060280
304.811000	 -3.055560
304.808000	 -3.051390
304.805000	 -3.047500
304.802000	 -3.043330
304.799000	 -3.040000
304.796000	 -3.036110
304.792000	 -3.032780
304.788000	 -3.030280
304.784000	 -3.026940
304.780000	 -3.024170
304.777000	 -3.021110
304.774000	 -3.016940
304.771000	 -3.013060
304.769000	 -3.008330
304.766000	 -3.003330
304.765000	 -2.997220
304.765000	 -2.990560
304.765000	 -2.983610
304.765000	 -2.976670
304.764000	 -2.969720
304.765000	 -2.963610
304.765000	 -2.957500
304.766000	 -2.951390
304.766000	 -2.945000
304.767000	 -2.939440
304.768000	 -2.933330
304.770000	 -2.928330
304.772000	 -2.923610
304.773000	 -2.918610
304.776000	 -2.914440
304.779000	 -2.910280
304.782000	 -2.906670
304.785000	 -2.903060
304.788000	 -2.898890
304.791000	 -2.894720
304.793000	 -2.890560
304.794000	 -2.885000
304.796000	 -2.879440
304.796000	 -2.873330
304.796000	 -2.866390
304.795000	 -2.860280
304.797000	 -2.855280
304.801000	 -2.852500
304.805000	 -2.849440
304.809000	 -2.846670
304.814000	 -2.843610
304.817000	 -2.840830
304.822000	 -2.838060
304.825000	 -2.834440
304.827000	 -2.830280
304.830000	 -2.826110
304.833000	 -2.821670
304.834000	 -2.816110
304.835000	 -2.810560
304.836000	 -2.804440
304.835000	 -2.797500
304.834000	 -2.791390
304.833000	 -2.786110
304.831000	 -2.780560
304.831000	 -2.773610
304.832000	 -2.767500
304.832000	 -2.761390
304.834000	 -2.756390
304.835000	 -2.750830
304.838000	 -2.746670
304.839000	 -2.741940
304.841000	 -2.736940
304.842000	 -2.731390
304.842000	 -2.724440
304.843000	 -2.718330
304.842000	 -2.711390
304.842000	 -2.705280
304.841000	 -2.699170
304.840000	 -2.693060
304.838000	 -2.687500
304.837000	 -2.681390
304.836000	 -2.675280
304.836000	 -2.668330
304.835000	 -2.662220
304.835000	 -2.655560
304.835000	 -2.648610
304.835000	 -2.642500
304.835000	 -2.635560
304.836000	 -2.629440
304.836000	 -2.623060
304.836000	 -2.616940
304.837000	 -2.611390
304.838000	 -2.605280
304.840000	 -2.600280
304.842000	 -2.595560
304.844000	 -2.590560
304.846000	 -2.586390
304.849000	 -2.582220
304.851000	 -2.578060
304.854000	 -2.573610
304.857000	 -2.569440
304.860000	 -2.565830
304.863000	 -2.561670
304.865000	 -2.557500
304.868000	 -2.553330
304.870000	 -2.549170
304.872000	 -2.544170
304.875000	 -2.540000
304.877000	 -2.535830
304.880000	 -2.531670
304.882000	 -2.526670
304.885000	 -2.522500
304.888000	 -2.518330
304.890000	 -2.513330
304.892000	 -2.508610
304.892000	 -2.503060
304.894000	 -2.498060
304.896000	 -2.493330
304.898000	 -2.488330
304.900000	 -2.483610
304.902000	 -2.478610
304.904000	 -2.473890
304.905000	 -2.468060
304.906000	 -2.461940
304.907000	 -2.456390
304.909000	 -2.451670
304.911000	 -2.447500
304.914000	 -2.443060
304.916000	 -2.438890
304.920000	 -2.435280
304.923000	 -2.431940
304.926000	 -2.427780
304.930000	 -2.424720
304.933000	 -2.421110
304.936000	 -2.417500
304.939000	 -2.413330
304.942000	 -2.410000
304.945000	 -2.405560
304.947000	 -2.401390
304.949000	 -2.396670
304.951000	 -2.391670
304.952000	 -2.386110
304.954000	 -2.380560
304.955000	 -2.375830
304.957000	 -2.370280
304.958000	 -2.364720
304.959000	 -2.359170
304.960000	 -2.353610
304.961000	 -2.348060
304.963000	 -2.343330
304.965000	 -2.338330
304.966000	 -2.332780
304.968000	 -2.328060
304.968000	 -2.322500
304.964000	 -2.320000
304.958000	 -2.320000
304.952000	 -2.321670
304.949000	 -2.324440
304.944000	 -2.327500
304.941000	 -2.330280
304.937000	 -2.333330
304.933000	 -2.336670
304.929000	 -2.339720
304.924000	 -2.342500
304.921000	 -2.345560
304.917000	 -2.348890
304.913000	 -2.351940
304.910000	 -2.355560
304.907000	 -2.358890
304.902000	 -2.361390
304.898000	 -2.364170
304.892000	 -2.365830
304.888000	 -2.368060
304.883000	 -2.370280
304.878000	 -2.371670
304.872000	 -2.372780
304.866000	 -2.374170
304.860000	 -2.375000
304.854000	 -2.376110
304.848000	 -2.376940
304.841000	 -2.377780
304.835000	 -2.378610
304.829000	 -2.379720
304.824000	 -2.381940
304.819000	 -2.384170
304.817000	 -2.388330
304.815000	 -2.393330
304.814000	 -2.398610
304.814000	 -2.405000
304.814000	 -2.411670
304.812000	 -2.416670
304.811000	 -2.421390
304.811000	 -2.427780
304.810000	 -2.433330
304.808000	 -2.438060
304.807000	 -2.443610
304.805000	 -2.448610
304.804000	 -2.453890
304.802000	 -2.458890
304.800000	 -2.463890
304.798000	 -2.468610
304.795000	 -2.472780
304.793000	 -2.477780
304.791000	 -2.481940
304.788000	 -2.486110
304.786000	 -2.490280
304.783000	 -2.493890
304.780000	 -2.498060
304.776000	 -2.501110
304.776000	 -2.494720
304.778000	 -2.490000
304.780000	 -2.485000
304.782000	 -2.480280
304.784000	 -2.475280
304.786000	 -2.470560
304.788000	 -2.465560
304.789000	 -2.460560
304.791000	 -2.455830
304.793000	 -2.450280
304.794000	 -2.444720
304.794000	 -2.438610
304.795000	 -2.432500
304.794000	 -2.425560
304.793000	 -2.419440
304.793000	 -2.413330
304.792000	 -2.407220
304.790000	 -2.401670
304.789000	 -2.396110
304.787000	 -2.390830
304.786000	 -2.384720
304.786000	 -2.377780
304.786000	 -2.371670
304.787000	 -2.366110
304.790000	 -2.361940
304.793000	 -2.357500
304.796000	 -2.354170
304.799000	 -2.350560
304.803000	 -2.346940
304.807000	 -2.344170
304.811000	 -2.341940
304.815000	 -2.338890
304.819000	 -2.336110
304.822000	 -2.332500
304.827000	 -2.329720
304.830000	 -2.326110
304.834000	 -2.323330
304.839000	 -2.321110
304.844000	 -2.319440
304.850000	 -2.318610
304.856000	 -2.317500
304.862000	 -2.316110
304.868000	 -2.314440
304.872000	 -2.312220
304.876000	 -2.309440
304.880000	 -2.306390
304.883000	 -2.302780
304.886000	 -2.298610
304.889000	 -2.294440
304.890000	 -2.289720
304.893000	 -2.285280
304.896000	 -2.281940
304.900000	 -2.278330
304.903000	 -2.274720
304.907000	 -2.271940
304.912000	 -2.269720
304.916000	 -2.267500
304.922000	 -2.265830
304.928000	 -2.264170
304.934000	 -2.263330
304.940000	 -2.262500
304.946000	 -2.260830
304.952000	 -2.260000
304.957000	 -2.258330
304.963000	 -2.257500
304.969000	 -2.255830
304.974000	 -2.254440
304.981000	 -2.253330
304.986000	 -2.251940
304.992000	 -2.250830
304.998000	 -2.250000
305.004000	 -2.248610
305.010000	 -2.247500
305.016000	 -2.246670
305.023000	 -2.246390
305.029000	 -2.246110
305.036000	 -2.245830
305.043000	 -2.245560
305.049000	 -2.246110
305.056000	 -2.246670
305.062000	 -2.246390
305.069000	 -2.246110
305.076000	 -2.246390
305.082000	 -2.246940
305.087000	 -2.248060
305.093000	 -2.249170
305.096000	 -2.252500
305.099000	 -2.256670
305.100000	 -2.262780
305.098000	 -2.267500
305.095000	 -2.271110
305.092000	 -2.274720
305.088000	 -2.277500
305.084000	 -2.280560
305.080000	 -2.283330
305.077000	 -2.287500
305.075000	 -2.292500
305.075000	 -2.298610
305.077000	 -2.302780
